# Pioneer CD as function of alpha [deg]

-8  0.0734
-7  0.0674
-6  0.0629
-5  0.0597
-4  0.0576
-3  0.0568
-2  0.0569
-1  0.0580
 0  0.0601
 1  0.0630
 2  0.0668
 3  0.0713
 4  0.0767
 5  0.0830
 6  0.0900
 7  0.0980
 8  0.1069
 9  0.1167
10  0.1276
11  0.1397
12  0.1530
13  0.1676
14  0.1837
15  0.2014
16  0.2209
17  0.2423
