# Pioneer CL as function of alpha [deg]

-8  -0.384
-7  -0.294
-6  -0.202
-5  -0.107
-4  -0.010
-3   0.088
-2   0.187
-1   0.286
 0   0.385
 1   0.483
 2   0.580
 3   0.674
 4   0.766
 5   0.855
 6   0.940
 7   1.022
 8   1.098
 9   1.170
10   1.235
11   1.295
12   1.347
13   1.392
14   1.430
15   1.458
16   1.478
17   1.488
