 # Pioneer Cm as function of alpha [deg]

-8      0.411
-7      0.39
-6      0.365
-5      0.338
-4      0.309
-3      0.279
-2      0.251
-1      0.222
0       0.194
1       0.167
2       0.139
3       0.11
4       0.08
5       0.047
6       0.012
7       -0.027
8       -0.07
9       -0.116
10      -0.168
11      -0.223
12      -0.281
13      -0.342
14      -0.404
15      -0.465
16      -0.522
17      -0.573
